* Measurement data measured by REW V5.19
* Source: USB-C to 3.5mm Headphone Jack Adapter, no input selected, 0, volume: no control
* Format: 256k Log Swept Sine, 1 sweep at -12.0 dBFS  With no timing reference
* Dated: Sep 21, 2020 8:50:08 AM
* REW Settings:
*  C-weighting compensation: Off
*  Target level: 75.0 dB
* Note: 
* Measurement: Fiio FH3
* Smoothing: None
* Frequency Step: 1/48 octave
* Start Frequency: 20.0 Hz
*
* Freq(Hz)	SPL(dB)	Phase(degrees)
20.000	79.252	179.559
20.291	79.215	179.155
20.586	79.179	178.755
20.885	79.144	178.354
21.189	79.110	177.948
21.497	79.079	177.533
21.810	79.048	177.111
22.127	79.015	176.684
22.449	78.980	176.256
22.776	78.944	175.830
23.107	78.906	175.409
23.443	78.868	174.993
23.784	78.829	174.580
24.130	78.791	174.168
24.481	78.752	173.755
24.837	78.713	173.344
25.198	78.672	172.936
25.565	78.630	172.537
25.937	78.588	172.145
26.314	78.547	171.758
26.697	78.506	171.367
27.085	78.466	170.971
27.479	78.424	170.571
27.879	78.380	170.176
28.284	78.335	169.790
28.696	78.289	169.419
29.113	78.243	169.060
29.537	78.198	168.708
29.966	78.154	168.358
30.402	78.115	168.006
30.844	78.075	167.645
31.293	78.035	167.275
31.748	77.991	166.900
32.210	77.945	166.530
32.678	77.897	166.174
33.154	77.848	165.829
33.636	77.801	165.486
34.125	77.752	165.141
34.621	77.703	164.798
35.125	77.653	164.464
35.636	77.603	164.137
36.154	77.554	163.808
36.680	77.505	163.473
37.214	77.453	163.140
37.755	77.400	162.817
38.304	77.348	162.508
38.861	77.297	162.204
39.427	77.245	161.901
40.000	77.193	161.598
40.582	77.139	161.294
41.172	77.084	160.992
41.771	77.028	160.697
42.379	76.973	160.403
42.995	76.920	160.103
43.620	76.865	159.815
44.255	76.811	159.560
44.898	76.764	159.301
45.552	76.717	158.996
46.214	76.660	158.697
46.886	76.603	158.465
47.568	76.554	158.233
48.260	76.501	157.932
48.962	76.434	157.660
49.674	76.370	157.474
50.397	76.316	157.234
51.130	76.247	156.925
51.874	76.169	156.751
52.628	76.116	156.642
53.394	76.073	156.356
54.170	76.007	156.053
54.958	75.944	155.864
55.758	75.884	155.620
56.569	75.811	155.481
57.391	75.761	155.371
58.226	75.682	155.074
59.073	75.574	155.265
59.932	75.583	155.512
60.804	75.579	154.797
61.688	75.444	154.299
62.586	75.359	154.355
63.496	75.305	154.079
64.420	75.223	153.883
65.357	75.166	153.731
66.307	75.101	153.533
67.272	75.040	153.394
68.250	74.973	153.231
69.243	74.908	153.167
70.250	74.847	153.020
71.272	74.772	152.901
72.309	74.706	152.820
73.360	74.641	152.690
74.427	74.573	152.568
75.510	74.508	152.500
76.608	74.451	152.409
77.723	74.388	152.273
78.853	74.313	152.187
80.000	74.246	152.170
81.164	74.181	152.088
82.344	74.113	152.031
83.542	74.047	151.955
84.757	73.978	151.919
85.990	73.915	151.864
87.241	73.843	151.813
88.510	73.775	151.812
89.797	73.710	151.767
91.103	73.637	151.734
92.428	73.568	151.749
93.773	73.501	151.737
95.137	73.438	151.746
96.520	73.365	151.686
97.924	73.294	151.778
99.349	73.230	151.761
100.794	73.159	151.793
102.260	73.089	151.801
103.747	73.019	151.802
105.256	72.951	151.844
106.787	72.889	151.875
108.340	72.821	151.935
109.916	72.754	152.032
111.515	72.684	152.055
113.137	72.621	152.063
114.783	72.561	152.161
116.452	72.495	152.293
118.146	72.433	152.339
119.865	72.477	153.256
121.608	72.308	152.359
123.377	72.232	152.643
125.171	72.149	152.764
126.992	72.075	152.811
128.839	72.003	152.903
130.713	71.934	153.041
132.615	71.860	153.260
134.543	71.770	153.380
136.500	71.693	153.558
138.486	71.616	153.798
140.500	71.525	154.101
142.544	71.437	154.459
144.617	71.350	154.932
146.721	71.272	155.501
148.855	71.226	156.268
151.020	71.229	157.066
153.217	71.303	157.576
155.445	71.379	157.578
157.706	71.405	157.293
160.000	71.390	157.017
162.327	71.349	156.855
164.688	71.299	156.863
167.084	71.241	156.862
169.514	71.190	156.949
171.980	71.134	157.070
174.481	71.076	157.225
177.019	71.024	157.385
179.594	70.984	157.536
182.206	70.932	157.799
184.856	70.886	158.023
187.545	70.844	158.218
190.273	70.803	158.388
193.041	70.761	158.636
195.849	70.710	158.820
198.697	70.661	159.020
201.587	70.608	159.188
204.520	70.557	159.408
207.494	70.504	159.613
210.512	70.454	159.839
213.574	70.403	160.098
216.681	70.358	160.331
219.833	70.312	160.589
223.030	70.266	160.861
226.274	70.222	161.141
229.565	70.181	161.445
232.905	70.134	161.737
236.292	70.093	162.011
239.729	70.192	162.424
243.216	70.045	162.622
246.754	69.985	163.025
250.343	69.961	163.284
253.984	69.926	163.652
257.678	69.896	163.949
261.426	69.871	164.292
265.229	69.848	164.638
269.087	69.831	164.934
273.001	69.816	165.212
276.972	69.794	165.405
281.000	69.759	165.632
285.088	69.726	165.809
289.234	69.684	166.082
293.441	69.647	166.315
297.710	69.603	166.736
302.040	69.553	166.975
306.433	69.511	167.310
310.890	69.463	167.795
315.412	69.425	168.296
320.000	69.406	168.889
324.655	69.418	169.405
329.377	69.437	169.689
334.168	69.436	169.858
339.028	69.417	170.019
343.959	69.390	170.204
348.962	69.360	170.435
354.038	69.326	170.729
359.188	69.295	171.113
364.412	69.257	171.348
369.713	69.228	171.669
375.090	69.193	172.002
380.546	69.168	172.342
386.081	69.136	172.687
391.697	69.115	173.060
397.395	69.092	173.445
403.175	69.068	173.840
409.039	69.046	174.229
414.989	69.024	174.639
421.025	69.022	174.992
427.149	68.986	175.445
433.362	68.974	175.872
439.665	68.962	176.280
446.060	68.953	176.737
452.548	68.945	177.160
459.131	68.941	177.592
465.809	68.929	178.042
472.584	68.923	178.504
479.458	68.961	178.912
486.432	68.899	179.410
493.507	68.891	179.871
500.686	68.876	-179.667
507.968	68.864	-179.187
515.357	68.851	-178.720
522.853	68.838	-178.207
530.458	68.830	-177.732
538.174	68.813	-177.224
546.002	68.811	-176.698
553.943	68.806	-176.187
562.001	68.797	-175.666
570.175	68.792	-175.139
578.469	68.787	-174.598
586.883	68.790	-174.019
595.419	68.783	-173.499
604.080	68.786	-172.924
612.866	68.797	-172.346
621.780	68.815	-171.729
630.824	68.826	-171.142
640.000	68.845	-170.557
649.309	68.866	-169.931
658.753	68.892	-169.317
668.335	68.911	-168.663
678.056	68.937	-168.030
687.919	68.960	-167.377
697.925	68.981	-166.713
708.076	69.003	-166.055
718.376	69.031	-165.350
728.825	69.058	-164.681
739.426	69.094	-163.984
750.181	69.131	-163.258
761.093	69.169	-162.561
772.163	69.212	-161.820
783.394	69.257	-161.111
794.789	69.304	-160.360
806.349	69.358	-159.638
818.078	69.415	-158.910
829.977	69.478	-158.143
842.050	69.544	-157.396
854.297	69.617	-156.661
866.724	69.705	-155.933
879.330	69.799	-155.199
892.120	69.897	-154.496
905.097	69.999	-153.783
918.262	70.122	-153.112
931.618	70.243	-152.444
945.169	70.369	-151.819
958.917	70.509	-151.162
972.864	70.653	-150.633
987.015	70.813	-150.100
1001.371	70.979	-149.637
1015.937	71.149	-149.218
1030.714	71.325	-148.852
1045.706	71.507	-148.555
1060.916	71.688	-148.302
1076.347	71.879	-148.164
1092.003	72.051	-148.072
1107.887	72.225	-148.081
1124.001	72.396	-148.154
1140.350	72.580	-148.375
1156.937	72.728	-148.601
1173.765	72.893	-148.980
1190.838	73.047	-149.431
1208.159	73.194	-149.984
1225.732	73.320	-150.589
1243.561	73.432	-151.307
1261.649	73.546	-152.136
1280.000	73.607	-152.951
1298.618	73.669	-153.835
1317.507	73.706	-154.772
1336.670	73.729	-155.739
1356.113	73.731	-156.653
1375.838	73.751	-157.576
1395.850	73.762	-158.414
1416.153	73.749	-159.192
1436.751	73.722	-159.852
1457.649	73.675	-160.383
1478.851	73.619	-160.801
1500.362	73.553	-160.830
1522.185	73.477	-161.176
1544.326	73.371	-161.111
1566.789	73.253	-160.868
1589.578	73.137	-160.519
1612.699	73.030	-159.992
1636.156	72.942	-159.353
1659.955	72.868	-158.575
1684.099	72.809	-157.691
1708.595	72.771	-156.721
1733.447	72.744	-155.687
1758.661	72.735	-154.612
1784.241	72.749	-153.508
1810.193	72.790	-152.403
1836.523	72.859	-151.308
1863.236	72.952	-150.208
1890.338	73.072	-149.252
1917.833	73.218	-148.342
1945.729	73.430	-147.558
1974.030	73.684	-146.898
2002.743	73.955	-146.441
2031.873	74.242	-146.192
2061.428	74.549	-146.179
2091.412	74.861	-146.428
2121.832	75.179	-146.954
2152.695	75.490	-147.808
2184.007	75.760	-149.019
2215.774	76.000	-150.545
2248.003	76.200	-152.389
2280.701	76.347	-154.458
2313.874	76.441	-156.797
2347.530	76.467	-159.245
2381.676	76.422	-161.680
2416.318	76.307	-164.019
2451.464	76.117	-166.163
2487.122	75.872	-168.033
2523.298	75.587	-169.559
2560.000	75.274	-170.729
2597.236	74.947	-171.503
2635.014	74.618	-171.929
2673.341	74.292	-172.030
2712.226	73.984	-171.799
2751.676	73.686	-171.274
2791.700	73.414	-170.549
2832.306	73.167	-169.586
2873.503	72.955	-168.456
2915.299	72.778	-167.225
2957.703	72.640	-165.853
3000.724	72.531	-164.472
3044.370	72.475	-163.102
3088.652	72.456	-161.749
3133.577	72.473	-160.462
3179.156	72.525	-159.303
3225.398	72.611	-158.279
3272.312	72.734	-157.442
3319.909	72.882	-156.925
3368.198	73.049	-156.761
3417.190	73.221	-156.958
3466.894	73.412	-157.513
3517.321	73.580	-158.393
3568.482	73.716	-159.550
3620.387	73.793	-160.895
3673.046	73.823	-162.330
3726.472	73.787	-163.809
3780.675	73.699	-165.121
3835.666	73.560	-166.174
3891.457	73.354	-166.939
3948.060	73.126	-167.315
4005.486	72.903	-167.400
4063.747	72.695	-167.146
4122.855	72.526	-166.640
4182.824	72.396	-165.913
4243.664	72.319	-165.108
4305.390	72.307	-164.295
4368.013	72.346	-163.708
4431.547	72.442	-163.453
4496.005	72.593	-163.801
4561.401	72.743	-164.933
4627.749	72.838	-166.965
4695.061	72.802	-169.696
4763.352	72.588	-172.632
4832.637	72.202	-175.039
4902.929	71.744	-176.502
4974.244	71.267	-177.037
5046.596	70.810	-176.824
5120.000	70.407	-176.032
5194.472	70.047	-174.805
5270.027	69.744	-173.207
5346.682	69.528	-171.242
5424.451	69.398	-169.218
5503.352	69.340	-167.193
5583.399	69.394	-165.483
5664.612	69.535	-164.174
5747.006	69.744	-163.669
5830.598	69.983	-164.162
5915.406	70.172	-165.736
6001.447	70.220	-168.484
6088.740	70.068	-171.733
6177.303	69.664	-174.962
6267.154	69.015	-177.270
6358.312	68.157	-177.973
6450.796	67.223	-176.447
6544.625	66.381	-172.452
6639.818	65.796	-166.580
6736.397	65.545	-160.043
6834.380	65.582	-153.863
6933.789	65.733	-148.210
7034.643	65.992	-143.218
7136.964	66.343	-138.643
7240.773	66.791	-134.496
7346.093	67.299	-130.737
7452.944	67.886	-127.271
7561.350	68.586	-124.058
7671.332	69.447	-121.453
7782.915	70.396	-119.757
7896.120	71.461	-119.244
8010.971	72.639	-120.414
8127.493	73.879	-123.805
8245.711	75.061	-129.964
8365.647	75.998	-139.051
8487.328	76.448	-150.566
8610.779	76.211	-162.645
8736.026	75.406	-172.680
8863.095	74.312	-179.385
8992.011	73.176	177.066
9122.803	72.149	175.765
9255.497	71.267	176.726
9390.121	70.939	177.389
9526.704	70.444	178.395
9665.273	70.186	179.868
9805.857	70.177	-178.815
9948.487	70.384	-178.212
10093.191	70.804	-178.895
10240.000	71.410	178.095
10388.944	72.035	171.293
10540.055	72.173	159.695
10693.363	71.179	146.886
10848.902	69.303	139.380
11006.703	67.483	138.494
11166.799	66.184	140.795
11329.224	65.332	143.217
11494.012	64.664	144.966
11661.195	64.084	146.324
11830.812	63.546	147.709
12002.895	63.118	148.700
12177.480	62.689	149.490
12354.606	62.301	150.295
12534.309	62.017	151.297
12716.624	61.784	152.344
12901.592	61.648	153.459
13089.250	61.665	154.681
13279.637	61.849	155.472
13472.794	62.258	155.544
13668.760	62.979	154.422
13867.577	64.006	150.920
14069.285	65.391	142.766
14273.928	66.845	125.500
14481.547	66.843	96.978
14692.186	64.268	71.025
14905.889	60.799	57.078
15122.700	57.623	50.808
15342.664	54.917	48.557
15565.829	52.759	48.794
15792.239	51.090	50.830
16021.942	50.410	53.624
16254.986	51.102	49.746
16491.422	51.175	32.120
16731.295	49.745	14.677
16974.656	48.020	-0.273
17221.559	46.170	-14.862
17472.053	44.119	-27.663
17726.189	42.270	-38.681
17984.021	40.914	-48.784
18245.605	40.286	-58.087
18510.994	40.009	-71.084
18780.242	40.657	-92.452
19053.408	41.733	-120.002
19330.547	42.672	-172.442
19611.715	40.270	114.984
19896.975	33.186	50.374
