* Measurement data measured by REW V5.19
* Source: USB-C to 3.5mm Headphone Jack Adapter, no input selected, 0, volume: no control. Timing signal peak level -5.3 dBFS, measurement signal peak level -4.1 dBFS
* Format: 256k Log Swept Sine, 1 sweep at -12.0 dBFS  Using an acoustic timing reference
* Dated: Mar 20, 2021 10:43:40 AM
* REW Settings:
*  C-weighting compensation: Off
*  Target level: 75.0 dB
* Note: Delay -0.028Â±0.011 ms (-10 mm, -0.38 in) using estimated IR delay relative to Acoustic reference on  L
* Measurement: Hana (stock)
* Smoothing: 1/12 octave
* Frequency Step: 1/48 octave
* Start Frequency: 20.3 Hz
*
* Freq(Hz)	SPL(dB)	Phase(degrees)
20.291	74.670	43.775
20.586	74.683	43.577
20.885	74.720	43.075
21.189	74.761	42.464
21.497	74.801	41.799
21.810	74.837	41.117
22.127	74.868	40.432
22.449	74.896	39.746
22.776	74.921	39.060
23.107	74.945	38.376
23.443	74.971	37.696
23.784	74.998	37.022
24.130	75.030	36.348
24.481	75.065	35.670
24.837	75.103	34.980
25.198	75.143	34.278
25.565	75.181	33.568
25.937	75.217	32.866
26.314	75.249	32.187
26.697	75.280	31.541
27.085	75.311	30.927
27.479	75.343	30.333
27.879	75.375	29.744
28.284	75.405	29.148
28.696	75.432	28.543
29.113	75.455	27.934
29.537	75.474	27.328
29.966	75.489	26.727
30.402	75.503	26.128
30.844	75.516	25.530
31.293	75.529	24.929
31.748	75.542	24.325
32.210	75.557	23.714
32.678	75.572	23.093
33.154	75.586	22.462
33.636	75.599	21.834
34.125	75.610	21.225
34.621	75.622	20.644
35.125	75.637	20.078
35.636	75.655	19.505
36.154	75.672	18.905
36.680	75.682	18.292
37.214	75.684	17.696
37.755	75.681	17.145
38.304	75.679	16.636
38.861	75.680	16.137
39.427	75.684	15.622
40.000	75.685	15.084
40.582	75.683	14.534
41.172	75.677	13.986
41.771	75.669	13.444
42.379	75.660	12.904
42.995	75.650	12.368
43.620	75.640	11.834
44.255	75.632	11.296
44.898	75.625	10.739
45.552	75.620	10.143
46.214	75.611	9.505
46.886	75.594	8.856
47.568	75.569	8.252
48.260	75.544	7.738
48.962	75.529	7.296
49.674	75.526	6.863
50.397	75.528	6.395
51.130	75.527	5.897
51.874	75.518	5.405
52.628	75.503	4.943
53.394	75.484	4.509
54.170	75.465	4.089
54.958	75.446	3.663
55.758	75.427	3.216
56.569	75.408	2.746
57.391	75.388	2.254
58.226	75.369	1.741
59.073	75.347	1.214
59.932	75.319	0.686
60.804	75.282	0.191
61.688	75.236	-0.231
62.586	75.187	-0.562
63.496	75.137	-0.812
64.420	75.090	-1.006
65.357	75.046	-1.168
66.307	75.005	-1.323
67.272	74.966	-1.478
68.250	74.931	-1.631
69.243	74.904	-1.801
70.250	74.885	-2.019
71.272	74.872	-2.301
72.309	74.862	-2.635
73.360	74.854	-3.010
74.427	74.845	-3.415
75.510	74.831	-3.828
76.608	74.809	-4.215
77.723	74.783	-4.560
78.853	74.755	-4.878
80.000	74.728	-5.195
81.164	74.700	-5.528
82.344	74.675	-5.883
83.542	74.650	-6.262
84.757	74.626	-6.660
85.990	74.601	-7.065
87.241	74.574	-7.467
88.510	74.544	-7.859
89.797	74.510	-8.243
91.103	74.474	-8.623
92.428	74.434	-8.995
93.773	74.390	-9.355
95.137	74.344	-9.695
96.520	74.296	-10.019
97.924	74.247	-10.331
99.349	74.197	-10.637
100.794	74.146	-10.937
102.260	74.094	-11.229
103.747	74.042	-11.511
105.256	73.990	-11.781
106.787	73.937	-12.040
108.340	73.882	-12.287
109.916	73.826	-12.522
111.515	73.769	-12.744
113.137	73.714	-12.950
114.783	73.661	-13.137
116.452	73.612	-13.303
118.146	73.565	-13.458
119.865	73.518	-13.613
121.608	73.467	-13.771
123.377	73.412	-13.933
125.171	73.355	-14.101
126.992	73.297	-14.277
128.839	73.240	-14.454
130.713	73.182	-14.626
132.615	73.123	-14.791
134.543	73.063	-14.948
136.500	73.002	-15.097
138.486	72.940	-15.233
140.500	72.877	-15.357
142.544	72.812	-15.469
144.617	72.745	-15.572
146.721	72.677	-15.665
148.855	72.608	-15.747
151.020	72.538	-15.819
153.217	72.466	-15.880
155.445	72.393	-15.925
157.706	72.320	-15.941
160.000	72.248	-15.909
162.327	72.176	-15.814
164.688	72.107	-15.650
167.084	72.042	-15.430
169.514	71.987	-15.182
171.980	71.943	-14.936
174.481	71.910	-14.726
177.019	71.887	-14.573
179.594	71.867	-14.486
182.206	71.846	-14.459
184.856	71.820	-14.479
187.545	71.788	-14.533
190.273	71.750	-14.607
193.041	71.707	-14.685
195.849	71.658	-14.752
198.697	71.605	-14.802
201.587	71.548	-14.832
204.520	71.490	-14.842
207.494	71.431	-14.835
210.512	71.372	-14.812
213.574	71.312	-14.773
216.681	71.251	-14.717
219.833	71.191	-14.645
223.030	71.130	-14.555
226.274	71.070	-14.452
229.565	71.009	-14.337
232.905	70.947	-14.212
236.292	70.885	-14.077
239.729	70.825	-13.932
243.216	70.768	-13.779
246.754	70.712	-13.618
250.343	70.657	-13.449
253.984	70.602	-13.273
257.678	70.547	-13.089
261.426	70.493	-12.892
265.229	70.438	-12.682
269.087	70.382	-12.460
273.001	70.327	-12.232
276.972	70.273	-12.000
281.000	70.220	-11.766
285.088	70.167	-11.527
289.234	70.116	-11.280
293.441	70.065	-11.027
297.710	70.015	-10.768
302.040	69.964	-10.500
306.433	69.914	-10.222
310.890	69.864	-9.936
315.412	69.814	-9.643
320.000	69.765	-9.342
324.655	69.716	-9.035
329.377	69.668	-8.721
334.168	69.621	-8.401
339.028	69.574	-8.076
343.959	69.528	-7.745
348.962	69.483	-7.407
354.038	69.438	-7.061
359.188	69.394	-6.706
364.412	69.351	-6.344
369.713	69.309	-5.974
375.090	69.267	-5.598
380.546	69.225	-5.217
386.081	69.184	-4.830
391.697	69.144	-4.435
397.395	69.105	-4.033
403.175	69.066	-3.626
409.039	69.027	-3.213
414.989	68.989	-2.792
421.025	68.952	-2.364
427.149	68.915	-1.925
433.362	68.880	-1.479
439.665	68.846	-1.026
446.060	68.812	-0.567
452.548	68.778	-0.103
459.131	68.746	0.369
465.809	68.714	0.847
472.584	68.683	1.335
479.458	68.653	1.831
486.432	68.623	2.334
493.507	68.594	2.843
500.686	68.566	3.360
507.968	68.538	3.886
515.357	68.511	4.418
522.853	68.485	4.958
530.458	68.460	5.505
538.174	68.436	6.064
546.002	68.413	6.634
553.943	68.391	7.217
562.001	68.370	7.810
570.175	68.350	8.412
578.469	68.331	9.023
586.883	68.313	9.645
595.419	68.296	10.276
604.080	68.280	10.917
612.866	68.265	11.569
621.780	68.252	12.231
630.824	68.239	12.904
640.000	68.228	13.591
649.309	68.219	14.291
658.753	68.210	15.004
668.335	68.203	15.727
678.056	68.198	16.464
687.919	68.194	17.214
697.925	68.192	17.979
708.076	68.193	18.758
718.376	68.195	19.552
728.825	68.200	20.362
739.426	68.207	21.187
750.181	68.216	22.028
761.093	68.228	22.885
772.163	68.243	23.757
783.394	68.262	24.647
794.789	68.284	25.554
806.349	68.309	26.478
818.078	68.338	27.417
829.977	68.371	28.372
842.050	68.409	29.341
854.297	68.451	30.324
866.724	68.499	31.321
879.330	68.551	32.330
892.120	68.610	33.351
905.097	68.675	34.382
918.262	68.748	35.422
931.618	68.828	36.466
945.169	68.915	37.513
958.917	69.010	38.558
972.864	69.112	39.597
987.015	69.223	40.625
1001.371	69.341	41.639
1015.937	69.468	42.633
1030.714	69.603	43.601
1045.706	69.747	44.537
1060.916	69.898	45.438
1076.347	70.056	46.296
1092.003	70.221	47.108
1107.887	70.393	47.867
1124.001	70.569	48.570
1140.350	70.750	49.212
1156.937	70.934	49.788
1173.765	71.120	50.295
1190.838	71.306	50.733
1208.159	71.490	51.105
1225.732	71.672	51.416
1243.561	71.850	51.673
1261.649	72.024	51.882
1280.000	72.193	52.049
1298.618	72.357	52.181
1317.507	72.515	52.287
1336.670	72.668	52.374
1356.113	72.815	52.450
1375.838	72.956	52.528
1395.850	73.092	52.624
1416.153	73.226	52.749
1436.751	73.361	52.907
1457.649	73.500	53.089
1478.851	73.643	53.280
1500.362	73.792	53.463
1522.185	73.944	53.630
1544.326	74.099	53.777
1566.789	74.256	53.904
1589.578	74.415	54.012
1612.699	74.576	54.101
1636.156	74.739	54.171
1659.955	74.903	54.223
1684.099	75.069	54.257
1708.595	75.236	54.280
1733.447	75.405	54.299
1758.661	75.576	54.329
1784.241	75.754	54.387
1810.193	75.944	54.480
1836.523	76.157	54.595
1863.236	76.398	54.673
1890.338	76.670	54.616
1917.833	76.962	54.318
1945.729	77.257	53.712
1974.030	77.537	52.806
2002.743	77.792	51.664
2031.873	78.020	50.368
2061.428	78.222	48.978
2091.412	78.403	47.529
2121.832	78.566	46.030
2152.695	78.713	44.477
2184.007	78.842	42.861
2215.774	78.953	41.178
2248.003	79.042	39.435
2280.701	79.107	37.648
2313.874	79.146	35.839
2347.530	79.158	34.035
2381.676	79.144	32.260
2416.318	79.105	30.540
2451.464	79.041	28.895
2487.122	78.957	27.344
2523.298	78.853	25.902
2560.000	78.733	24.578
2597.236	78.600	23.378
2635.014	78.456	22.305
2673.341	78.305	21.357
2712.226	78.148	20.527
2751.676	77.989	19.807
2791.700	77.828	19.181
2832.306	77.667	18.634
2873.503	77.506	18.144
2915.299	77.343	17.689
2957.703	77.173	17.252
3000.724	76.989	16.835
3044.370	76.782	16.477
3088.652	76.543	16.277
3133.577	76.269	16.385
3179.156	75.974	16.958
3225.398	75.688	18.069
3272.312	75.452	19.647
3319.909	75.294	21.488
3368.198	75.223	23.347
3417.190	75.221	25.039
3466.894	75.264	26.479
3517.321	75.331	27.668
3568.482	75.406	28.645
3620.387	75.484	29.460
3673.046	75.560	30.152
3726.472	75.634	30.755
3780.675	75.703	31.301
3835.666	75.768	31.824
3891.457	75.833	32.360
3948.060	75.904	32.932
4005.486	75.988	33.542
4063.747	76.094	34.159
4122.855	76.223	34.729
4182.824	76.376	35.195
4243.664	76.548	35.516
4305.390	76.734	35.665
4368.013	76.930	35.626
4431.547	77.131	35.386
4496.005	77.334	34.937
4561.401	77.534	34.266
4627.749	77.728	33.366
4695.061	77.910	32.228
4763.352	78.075	30.845
4832.637	78.217	29.217
4902.929	78.327	27.353
4974.244	78.397	25.276
5046.596	78.421	23.030
5120.000	78.392	20.673
5194.472	78.306	18.281
5270.027	78.160	15.937
5346.682	77.955	13.736
5424.451	77.694	11.776
5503.352	77.385	10.151
5583.399	77.041	8.928
5664.612	76.683	8.112
5747.006	76.330	7.634
5830.598	75.990	7.386
5915.406	75.657	7.312
6001.447	75.324	7.442
6088.740	74.992	7.839
6177.303	74.669	8.535
6267.154	74.369	9.519
6358.312	74.103	10.753
6450.796	73.880	12.192
6544.625	73.705	13.786
6639.818	73.585	15.489
6736.397	73.525	17.253
6834.380	73.532	19.027
6933.789	73.612	20.749
7034.643	73.773	22.340
7136.964	74.020	23.700
7240.773	74.357	24.696
7346.093	74.780	25.164
7452.944	75.278	24.905
7561.350	75.825	23.682
7671.332	76.381	21.244
7782.915	76.890	17.383
7896.120	77.286	12.023
8010.971	77.508	5.319
8127.493	77.507	-2.298
8245.711	77.253	-10.178
8365.647	76.746	-17.614
8487.328	76.007	-24.010
8610.779	75.075	-28.996
8736.026	74.003	-32.438
8863.095	72.848	-34.392
8992.011	71.667	-35.031
9122.803	70.508	-34.577
9255.497	69.411	-33.252
9390.121	68.400	-31.250
9526.704	67.490	-28.732
9665.273	66.689	-25.823
9805.857	65.997	-22.618
9948.487	65.414	-19.185
10093.191	64.940	-15.571
10240.000	64.579	-11.807
10388.944	64.341	-7.909
10540.055	64.247	-3.881
10693.363	64.342	0.270
10848.902	64.703	4.510
11006.703	65.435	8.709
11166.799	66.616	12.525
11329.224	68.206	15.248
11494.012	70.016	15.719
11661.195	71.792	12.489
11830.812	73.307	4.338
12002.895	74.395	-8.996
12177.480	74.954	-26.364
12354.606	74.941	-45.436
12534.309	74.371	-63.560
12716.624	73.310	-78.747
12901.592	71.869	-90.203
13089.250	70.194	-98.199
13279.637	68.448	-103.583
13472.794	66.791	-107.295
13668.760	65.348	-110.100
13867.577	64.189	-112.520
14069.285	63.340	-114.912
14273.928	62.817	-117.573
14481.547	62.646	-120.832
14692.186	62.858	-125.130
14905.889	63.459	-131.093
15122.700	64.380	-139.616
15342.664	65.455	-151.863
15565.829	66.459	-169.012
15792.239	67.159	168.388
16021.942	67.372	141.179
16254.986	66.991	111.720
16491.422	66.001	82.836
16731.295	64.472	56.318
16974.656	62.534	32.285
17221.559	60.355	9.635
17472.053	58.121	-13.183
17726.189	56.006	-37.691
17984.021	54.132	-65.249
18245.605	52.534	-97.075
18510.994	51.154	-134.197
18780.242	49.876	-177.138
19053.408	48.566	134.789
19330.547	47.127	84.629
19611.715	45.575	38.825
19896.975	44.219	6.741
